t,z(t),v(t),a(t) (added)
0.02,1.56,0,-156
0.04,1.559376,-0.0312,-155.9376
0.06,1.558128,-0.06238752,-155.8128
0.08,1.556257,-0.09355008,-155.6257
0.09999999,1.553764,-0.1246752,-155.3764
0.12,1.550649,-0.1557505,-155.0649
0.14,1.546913,-0.1867635,-154.6913
0.16,1.542559,-0.2177017,-154.2559
0.18,1.537588,-0.2485529,-153.7588
0.2,1.532002,-0.2793047,-153.2002
0.22,1.525803,-0.3099447,-152.5803
0.24,1.518994,-0.3404608,-151.8994
0.26,1.511577,-0.3708407,-151.1577
0.28,1.503556,-0.4010722,-150.3556
0.3,1.494933,-0.4311433,-149.4933
0.32,1.485712,-0.461042,-148.5712
0.34,1.475897,-0.4907562,-147.5897
0.36,1.465491,-0.5202741,-146.5491
0.38,1.4545,-0.5495839,-145.45
0.4,1.442926,-0.5786739,-144.2926
0.42,1.430776,-0.6075324,-143.0776
0.4400001,1.418053,-0.636148,-141.8053
0.4600001,1.404763,-0.6645091,-140.4763
0.4800001,1.39091,-0.6926043,-139.091
0.5000001,1.376502,-0.7204225,-137.6502
0.52,1.361543,-0.7479525,-136.1543
0.54,1.346039,-0.7751834,-134.6039
0.56,1.329997,-0.8021042,-132.9997
0.58,1.313423,-0.8287041,-131.3423
0.6,1.296324,-0.8549726,-129.6324
0.6199999,1.278706,-0.8808991,-127.8706
0.6399999,1.260576,-0.9064732,-126.0576
0.6599999,1.241942,-0.9316847,-124.1942
0.6799999,1.222812,-0.9565235,-122.2812
0.6999999,1.203192,-0.9809798,-120.3192
0.7199998,1.183092,-1.005044,-118.3092
0.7399998,1.162517,-1.028705,-116.2517
0.7599998,1.141478,-1.051956,-114.1478
0.7799998,1.119983,-1.074785,-111.9983
0.7999998,1.098039,-1.097185,-109.8039
0.8199998,1.075656,-1.119146,-107.5656
0.8399997,1.052843,-1.140659,-105.2843
0.8599997,1.029608,-1.161716,-102.9608
0.8799997,1.005962,-1.182308,-100.5962
0.8999997,0.9819137,-1.202427,-98.19137
0.9199997,0.9574724,-1.222065,-95.74724
0.9399996,0.9326481,-1.241215,-93.26481
0.9599996,0.9074507,-1.259868,-90.74507
0.9799996,0.8818904,-1.278017,-88.18904
0.9999996,0.8559773,-1.295655,-85.59773
1.02,0.8297218,-1.312774,-82.97218
1.04,0.8031344,-1.329369,-80.31345
1.06,0.7762258,-1.345431,-77.62258
1.08,0.7490067,-1.360956,-74.90067
1.1,0.721488,-1.375936,-72.1488
1.12,0.6936807,-1.390366,-69.36807
1.14,0.6655959,-1.404239,-66.55959
1.159999,0.6372449,-1.417551,-63.72449
1.179999,0.6086389,-1.430296,-60.8639
1.199999,0.5797896,-1.442469,-57.97896
1.219999,0.5507083,-1.454065,-55.07083
1.239999,0.5214067,-1.465079,-52.14067
1.259999,0.4918966,-1.475507,-49.18966
1.279999,0.4621897,-1.485345,-46.21897
1.299999,0.4322979,-1.494589,-43.22979
1.319999,0.4022332,-1.503235,-40.22332
1.339999,0.3720076,-1.51128,-37.20076
1.359999,0.3416332,-1.51872,-34.16332
1.379999,0.3111221,-1.525553,-31.11221
1.399999,0.2804866,-1.531775,-28.04866
1.419999,0.2497389,-1.537385,-24.97389
1.439999,0.2188913,-1.54238,-21.88913
1.459999,0.1879562,-1.546757,-18.79562
1.479999,0.1569458,-1.550517,-15.69458
1.499999,0.1258727,-1.553656,-12.58727
1.519999,0.09474927,-1.556173,-9.474927
1.539999,0.06358791,-1.558068,-6.358791
1.559999,0.03240112,-1.55934,-3.240112
1.579999,0.001201365,-1.559988,-0.1201365
1.599999,-0.02999887,-1.560012,2.999887
1.619999,-0.0611871,-1.559412,6.118711
1.639999,-0.09235086,-1.558188,9.235086
1.659999,-0.1234777,-1.556341,12.34777
1.679999,-0.1545551,-1.553872,15.45551
1.699999,-0.1855707,-1.55078,18.55707
1.719999,-0.2165121,-1.547069,21.65121
1.739999,-0.2473669,-1.542739,24.73669
1.759999,-0.2781227,-1.537791,27.81227
1.779999,-0.3087673,-1.532229,30.87673
1.799999,-0.3392883,-1.526054,33.92883
1.819999,-0.3696737,-1.519268,36.96737
1.839999,-0.3999112,-1.511874,39.99112
1.859999,-0.4299887,-1.503876,42.99887
1.879999,-0.4598942,-1.495276,45.98942
1.899999,-0.4896158,-1.486079,48.96158
1.919999,-0.5191415,-1.476286,51.91415
1.939999,-0.5484596,-1.465903,54.84596
1.959999,-0.5775583,-1.454934,57.75583
1.979999,-0.6064259,-1.443383,60.64259
1.999999,-0.635051,-1.431255,63.5051
2.019999,-0.6634221,-1.418554,66.34221
2.039999,-0.6915278,-1.405285,69.15278
2.059999,-0.7193569,-1.391455,71.93569
2.079999,-0.7468982,-1.377067,74.68983
2.099999,-0.7741408,-1.362129,77.41409
2.119999,-0.8010738,-1.346647,80.10738
2.139999,-0.8276863,-1.330625,82.76863
2.159999,-0.8539677,-1.314071,85.39677
2.179999,-0.8799075,-1.296992,87.99075
2.199999,-0.9054954,-1.279394,90.54954
2.219999,-0.9307211,-1.261284,93.07211
2.239999,-0.9555745,-1.24267,95.55745
2.259999,-0.9800457,-1.223558,98.00457
2.279999,-1.004125,-1.203957,100.4125
2.299999,-1.027802,-1.183875,102.7802
2.319999,-1.051069,-1.163319,105.1069
2.339998,-1.073915,-1.142297,107.3915
2.359998,-1.096331,-1.120819,109.6331
2.379998,-1.118309,-1.098892,111.8309
2.399998,-1.139839,-1.076526,113.9839
2.419998,-1.160914,-1.053729,116.0914
2.439998,-1.181524,-1.030511,118.1524
2.459998,-1.201662,-1.006881,120.1662
2.479998,-1.221319,-0.9828474,122.1319
2.499998,-1.240487,-0.958421,124.0487
2.519998,-1.259159,-0.9336113,125.9159
2.539998,-1.277328,-0.9084281,127.7328
2.559998,-1.294986,-0.8828815,129.4986
2.579998,-1.312125,-0.8569818,131.2125
2.599998,-1.32874,-0.8307393,132.874
2.619998,-1.344823,-0.8041645,134.4823
2.639998,-1.360369,-0.7772681,136.0369
2.659998,-1.37537,-0.7500607,137.537
2.679998,-1.389821,-0.7225533,138.9821
2.699998,-1.403716,-0.6947569,140.3716
2.719998,-1.41705,-0.6666826,141.705
2.739998,-1.429816,-0.6383416,142.9816
2.759998,-1.442011,-0.6097453,144.2011
2.779998,-1.453629,-0.580905,145.3629
2.799998,-1.464666,-0.5518324,146.4666
2.819998,-1.475117,-0.5225391,147.5117
2.839998,-1.484978,-0.4930368,148.4978
2.859998,-1.494244,-0.4633372,149.4244
2.879998,-1.502913,-0.4334524,150.2914
2.899998,-1.510981,-0.4033941,151.0981
2.919998,-1.518445,-0.3731745,151.8445
2.939998,-1.525301,-0.3428056,152.5301
2.959998,-1.531547,-0.3122996,153.1547
2.979998,-1.53718,-0.2816686,153.718
2.999998,-1.542199,-0.250925,154.2199
3.019998,-1.5466,-0.2200811,154.66
3.039998,-1.550383,-0.1891491,155.0383
3.059998,-1.553546,-0.1581414,155.3546
3.079998,-1.556087,-0.1270705,155.6087
3.099998,-1.558007,-0.09594873,155.8007
3.119998,-1.559302,-0.06478859,155.9302
3.139998,-1.559974,-0.03360255,155.9974
3.159998,-1.560022,-0.00240306,156.0022
3.179998,-1.559447,0.02879739,155.9447
3.199998,-1.558247,0.05998632,155.8247
3.219998,-1.556424,0.09115126,155.6424
3.239998,-1.553978,0.1222797,155.3978
3.259998,-1.550911,0.1533593,155.0911
3.279998,-1.547224,0.1843775,154.7224
3.299998,-1.542917,0.215322,154.2917
3.319998,-1.537994,0.2461803,153.7994
3.339998,-1.532455,0.2769402,153.2455
3.359998,-1.526303,0.3075893,152.6303
3.379997,-1.519541,0.3381154,151.9541
3.399997,-1.512171,0.3685062,151.2171
3.419997,-1.504196,0.3987496,150.4196
3.439997,-1.495619,0.4288335,149.5619
3.459997,-1.486444,0.4587459,148.6444
3.479997,-1.476675,0.4884748,147.6674
3.499997,-1.466314,0.5180082,146.6314
3.519997,-1.455368,0.5473345,145.5368
3.539997,-1.443839,0.5764418,144.3839
3.559997,-1.431733,0.6053186,143.1732
3.579997,-1.419053,0.6339533,141.9053
3.599997,-1.405807,0.6623343,140.5807
3.619997,-1.391998,0.6904504,139.1998
3.639997,-1.377632,0.7182904,137.7632
3.659997,-1.362715,0.7458431,136.2715
3.679997,-1.347253,0.7730973,134.7253
3.699997,-1.331252,0.8000424,133.1252
3.719997,-1.314719,0.8266674,131.4719
3.739997,-1.29766,0.8529618,129.766
3.759997,-1.280082,0.878915,128.0081
3.779997,-1.261991,0.9045166,126.1991
3.799997,-1.243396,0.9297564,124.3396
3.819997,-1.224304,0.9546243,122.4304
3.839997,-1.204721,0.9791104,120.4721
3.859997,-1.184657,1.003205,118.4657
3.879997,-1.164119,1.026898,116.4119
3.899997,-1.143116,1.05018,114.3116
3.919997,-1.121655,1.073043,112.1655
3.939997,-1.099745,1.095476,109.9745
3.959997,-1.077396,1.117471,107.7396
3.979997,-1.054616,1.139019,105.4616
3.999997,-1.031413,1.160111,103.1413
4.019997,-1.007799,1.180739,100.7799
4.039997,-0.9837807,1.200895,98.37807
4.059997,-0.9593693,1.220571,95.93693
4.079997,-0.9345741,1.239758,93.45741
4.099997,-0.9094051,1.25845,90.94051
4.119997,-0.8838723,1.276638,88.38723
4.139997,-0.857986,1.294315,85.79861
4.159997,-0.8317565,1.311475,83.17565
4.179997,-0.8051943,1.32811,80.51943
4.199997,-0.7783101,1.344214,77.83101
4.219997,-0.7511145,1.35978,75.11145
4.239997,-0.7236184,1.374802,72.36185
4.259997,-0.695833,1.389275,69.5833
4.279997,-0.6677691,1.403191,66.77692
4.299997,-0.6394382,1.416547,63.94382
4.319997,-0.6108515,1.429336,61.08515
4.339997,-0.5820205,1.441553,58.20205
4.359997,-0.5529566,1.453193,55.29566
4.379997,-0.5236715,1.464252,52.36715
4.399997,-0.494177,1.474726,49.4177
4.419997,-0.4644848,1.484609,46.44848
4.439997,-0.4346068,1.493899,43.46068
4.459997,-0.404555,1.502591,40.4555
4.479997,-0.3743413,1.510682,37.43414
4.499997,-0.343978,1.518169,34.3978
4.519997,-0.313477,1.525049,31.3477
4.539997,-0.2828506,1.531318,28.28506
4.559997,-0.2521111,1.536975,25.21111
4.579997,-0.2212708,1.542017,22.12708
4.599997,-0.1903419,1.546443,19.03419
4.619997,-0.1593369,1.55025,15.93369
4.639997,-0.1282682,1.553436,12.82682
4.659997,-0.09714815,1.556002,9.714815
4.679996,-0.06598926,1.557945,6.598926
4.699996,-0.03480397,1.559264,3.480397
4.719996,-0.003604759,1.55996,0.3604758
4.739996,0.02759589,1.560033,-2.759589
4.759996,0.05878551,1.559481,-5.878551
4.779996,0.0899516,1.558305,-8.99516
4.799996,0.1210817,1.556506,-12.10817
4.819996,0.1521634,1.554084,-15.21634
4.839996,0.1831842,1.551041,-18.31842
4.859996,0.2141318,1.547377,-21.41318
4.879996,0.2449937,1.543095,-24.49937
4.899996,0.2757576,1.538195,-27.57576
4.919996,0.3064112,1.53268,-30.64112
4.939996,0.3369422,1.526552,-33.69422
4.959996,0.3673384,1.519813,-36.73384
4.979996,0.3975878,1.512466,-39.75878
4.999996,0.427678,1.504514,-42.7678
5.019996,0.4575973,1.495961,-45.75973
5.039996,0.4873334,1.486809,-48.73334
5.059996,0.5168747,1.477062,-51.68747
5.079996,0.5462092,1.466725,-54.62091
5.099996,0.5753252,1.4558,-57.53252
5.119996,0.6042111,1.444294,-60.42111
5.139996,0.6328553,1.43221,-63.28553
5.159996,0.6612464,1.419553,-66.12463
5.179996,0.6893729,1.406328,-68.93729
5.199996,0.7172237,1.39254,-71.72237
5.219996,0.7447876,1.378196,-74.47876
5.239996,0.7720536,1.3633,-77.20536
5.259996,0.7990108,1.347859,-79.90108
5.279996,0.8256483,1.331879,-82.56483
5.299996,0.8519556,1.315366,-85.19556
5.319996,0.8779221,1.298326,-87.79221
5.339996,0.9035375,1.280768,-90.35374
5.359996,0.9287914,1.262697,-92.87914
5.379996,0.9536738,1.244122,-95.36739
5.399996,0.9781748,1.225048,-97.81748
5.419996,1.002285,1.205485,-100.2285
5.439996,1.025993,1.185439,-102.5993
5.459996,1.049292,1.164919,-104.9292
5.479996,1.07217,1.143933,-107.217
5.499996,1.09462,1.12249,-109.462
5.519996,1.116632,1.100598,-111.6632
5.539996,1.138198,1.078265,-113.8198
5.559996,1.159308,1.055501,-115.9308
5.579996,1.179954,1.032315,-117.9954
5.599996,1.200128,1.008716,-120.0128
5.619996,1.219822,0.9847131,-121.9822
5.639996,1.239029,0.9603167,-123.9029
5.659996,1.257739,0.9355361,-125.7739
5.679996,1.275947,0.9103813,-127.5947
5.699996,1.293644,0.8848624,-129.3644
5.719995,1.310824,0.8589895,-131.0824
5.739995,1.32748,0.832773,-132.748
5.759995,1.343604,0.8062234,-134.3604
5.779995,1.359191,0.7793513,-135.9191
5.799995,1.374234,0.7521675,-137.4234
5.819995,1.388728,0.7246827,-138.8728
5.839995,1.402666,0.6969082,-140.2666
5.859995,1.416043,0.6688548,-141.6043
5.879995,1.428854,0.640534,-142.8854
5.899995,1.441093,0.6119569,-144.1093
5.919995,1.452756,0.583135,-145.2756
5.939995,1.463838,0.5540799,-146.3837
5.959995,1.474334,0.5248032,-147.4333
5.979995,1.48424,0.4953165,-148.424
5.999995,1.493552,0.4656317,-149.3552
6.019995,1.502268,0.4357607,-150.2268
6.039995,1.510382,0.4057153,-151.0382
6.059995,1.517892,0.3755077,-151.7892
6.079995,1.524795,0.3451498,-152.4795
6.099995,1.531088,0.3146539,-153.1088
6.119995,1.536769,0.2840322,-153.6769
6.139995,1.541835,0.2532968,-154.1835
6.159995,1.546284,0.2224601,-154.6284
6.179995,1.550115,0.1915344,-155.0115
6.199995,1.553326,0.1605321,-155.3326
6.219995,1.555915,0.1294656,-155.5915
6.239995,1.557882,0.0983473,-155.7882
6.259995,1.559226,0.06718966,-155.9226
6.279995,1.559946,0.03600515,-155.9946
6.299995,1.560042,0.004806241,-156.0042
6.319995,1.559514,-0.02639459,-155.9514
6.339995,1.558362,-0.05758487,-155.8362
6.359995,1.556587,-0.08875212,-155.6587
6.379995,1.55419,-0.1198839,-155.419
6.399995,1.55117,-0.1509677,-155.117
6.419995,1.547531,-0.1819911,-154.7531
6.439995,1.543272,-0.2129417,-154.3272
6.459995,1.538396,-0.2438071,-153.8396
6.479995,1.532904,-0.274575,-153.2904
6.499995,1.526799,-0.3052331,-152.6799
6.519995,1.520084,-0.3357691,-152.0084
6.539995,1.512761,-0.3661708,-151.276
6.559995,1.504832,-0.396426,-150.4832
6.579995,1.496302,-0.4265226,-149.6302
6.599995,1.487173,-0.4564486,-148.7173
6.619995,1.477449,-0.4861921,-147.7449
6.639995,1.467134,-0.5157411,-146.7134
6.659995,1.456232,-0.5450838,-145.6232
6.679995,1.444748,-0.5742084,-144.4748
6.699995,1.432686,-0.6031033,-143.2686
6.719995,1.420051,-0.6317571,-142.0051
6.739995,1.406848,-0.6601581,-140.6848
6.759995,1.393082,-0.6882951,-139.3082
6.779994,1.378759,-0.7161567,-137.8759
6.799994,1.363884,-0.7437319,-136.3884
6.819994,1.348464,-0.7710096,-134.8464
6.839994,1.332504,-0.7979788,-133.2504
6.859994,1.316012,-0.8246289,-131.6012
6.879994,1.298993,-0.8509491,-129.8992
6.899994,1.281454,-0.8769289,-128.1454
6.919994,1.263403,-0.902558,-126.3403
6.939994,1.244846,-0.9278261,-124.4846
6.959994,1.225792,-0.952723,-122.5792
6.979994,1.206247,-0.9772389,-120.6247
6.999994,1.18622,-1.001364,-118.622
7.019994,1.165718,-1.025088,-116.5718
7.039994,1.14475,-1.048403,-114.475
7.059994,1.123324,-1.071298,-112.3324
7.079994,1.101449,-1.093764,-110.1449
7.099994,1.079133,-1.115793,-107.9133
7.119994,1.056386,-1.137376,-105.6385
7.139994,1.033215,-1.158503,-103.3215
7.159994,1.009632,-1.179168,-100.9632
7.179994,0.9856448,-1.19936,-98.56448
7.199994,0.9612633,-1.219073,-96.12633
7.219994,0.9364973,-1.238299,-93.64973
7.239994,0.9113567,-1.257028,-91.13567
7.259994,0.8858516,-1.275256,-88.58516
7.279994,0.8599921,-1.292973,-85.99921
7.299994,0.8337887,-1.310172,-83.37887
7.319994,0.8072518,-1.326848,-80.72517
7.339994,0.7803919,-1.342993,-78.03918
7.359994,0.7532198,-1.358601,-75.32198
7.379994,0.7257465,-1.373665,-72.57465
7.399994,0.6979829,-1.38818,-69.79829
7.419994,0.6699401,-1.40214,-66.99401
7.439994,0.6416293,-1.415539,-64.16293
7.459994,0.6130619,-1.428371,-61.30619
7.479994,0.5842493,-1.440633,-58.42493
7.499994,0.5552029,-1.452318,-55.52029
7.519994,0.5259345,-1.463422,-52.59344
7.539994,0.4964556,-1.47394,-49.64557
7.559994,0.4667782,-1.48387,-46.67783
7.579994,0.4369141,-1.493205,-43.69141
7.599994,0.4068753,-1.501943,-40.68753
7.619994,0.3766737,-1.510081,-37.66737
7.639994,0.3463214,-1.517614,-34.63214
7.659994,0.3158306,-1.524541,-31.58306
7.679994,0.2852134,-1.530857,-28.52134
7.699994,0.2544822,-1.536562,-25.44822
7.719994,0.2236492,-1.541651,-22.36492
7.739994,0.1927267,-1.546124,-19.27267
7.759994,0.1617271,-1.549979,-16.17271
7.779994,0.1306628,-1.553213,-13.06628
7.799994,0.0995463,-1.555827,-9.95463
7.819993,0.06838995,-1.557817,-6.838995
7.839993,0.03720625,-1.559185,-3.720625
7.859993,0.00600766,-1.559929,-0.600766
7.879993,-0.02519333,-1.56005,2.519333
7.899993,-0.05638424,-1.559546,5.638424
7.919993,-0.0875526,-1.558418,8.75526
7.939993,-0.1186859,-1.556667,11.86859
7.959993,-0.1497718,-1.554293,14.97718
7.979993,-0.1807977,-1.551298,18.07977
7.999993,-0.2117514,-1.547682,21.17514
8.019994,-0.2426203,-1.543447,24.26203
8.039994,-0.2733922,-1.538594,27.33922
8.059995,-0.3040547,-1.533126,30.40547
8.079995,-0.3345957,-1.527045,33.45956
8.099996,-0.3650027,-1.520353,36.50027
8.119996,-0.3952638,-1.513053,39.52638
8.139997,-0.4253668,-1.505148,42.53667
8.159997,-0.4552996,-1.496641,45.52996
8.179997,-0.4850503,-1.487535,48.50503
8.199998,-0.514607,-1.477834,51.46069
8.219998,-0.5439578,-1.467541,54.39578
8.239999,-0.573091,-1.456662,57.3091
8.259999,-0.6019951,-1.4452,60.1995
8.28,-0.6306583,-1.433161,63.06583
8.3,-0.6590692,-1.420547,65.90692
8.320001,-0.6872166,-1.407366,68.72166
8.340001,-0.715089,-1.393622,71.5089
8.360002,-0.7426754,-1.37932,74.26754
8.380002,-0.7699648,-1.364466,76.99648
8.400002,-0.7969461,-1.349067,79.69461
8.420003,-0.8236087,-1.333128,82.36087
8.440003,-0.8499418,-1.316656,84.99418
8.460004,-0.875935,-1.299657,87.5935
8.480004,-0.9015777,-1.282138,90.15777
8.500005,-0.9268599,-1.264107,92.68599
8.520005,-0.9517713,-1.24557,95.17712
8.540006,-0.976302,-1.226534,97.6302
8.560006,-1.000442,-1.207008,100.0442
8.580007,-1.024182,-1.186999,102.4182
8.600007,-1.047512,-1.166516,104.7512
8.620008,-1.070424,-1.145566,107.0424
8.640008,-1.092907,-1.124157,109.2907
8.660008,-1.114953,-1.102299,111.4953
8.680009,-1.136553,-1.08,113.6553
8.700009,-1.157698,-1.057269,115.7698
8.72001,-1.17838,-1.034115,117.8381
8.74001,-1.198591,-1.010547,119.8591
8.760011,-1.218323,-0.9865754,121.8323
8.780011,-1.237567,-0.962209,123.7567
8.800012,-1.256316,-0.9374576,125.6316
8.820012,-1.274563,-0.9123313,127.4563
8.840013,-1.2923,-0.88684,129.23
8.860013,-1.30952,-0.860994,130.952
8.880013,-1.326216,-0.8348036,132.6216
8.900014,-1.342381,-0.8082793,134.2381
8.920014,-1.35801,-0.7814317,135.801
8.940015,-1.373095,-0.7542715,137.3095
8.960015,-1.387632,-0.7268096,138.7632
8.980016,-1.401613,-0.699057,140.1613
9.000016,-1.415033,-0.6710247,141.5033
9.020017,-1.427888,-0.6427241,142.7888
9.040017,-1.440171,-0.6141663,144.0171
9.060018,-1.451878,-0.5853629,145.1878
9.080018,-1.463005,-0.5563254,146.3005
9.100019,-1.473546,-0.5270653,147.3546
9.120019,-1.483498,-0.4975944,148.3498
9.140019,-1.492856,-0.4679244,149.2856
9.16002,-1.501618,-0.4380673,150.1618
9.18002,-1.509778,-0.4080349,150.9778
9.200021,-1.517335,-0.3778393,151.7335
9.220021,-1.524285,-0.3474926,152.4285
9.240022,-1.530625,-0.3170069,153.0625
9.260022,-1.536353,-0.2863944,153.6353
9.280023,-1.541466,-0.2556674,154.1467
9.300023,-1.545963,-0.2248381,154.5963
9.320024,-1.549842,-0.1939188,154.9842
9.340024,-1.5531,-0.162922,155.31
9.360024,-1.555737,-0.13186,155.5737
9.380025,-1.557752,-0.1007452,155.7752
9.400025,-1.559144,-0.06959017,155.9144
9.420026,-1.559912,-0.0384073,155.9912
9.440026,-1.560056,-0.007209064,156.0056
9.460027,-1.559576,0.02399205,155.9576
9.480027,-1.558473,0.05518357,155.8473
9.500028,-1.556746,0.08635301,155.6746
9.520028,-1.554396,0.1174879,155.4396
9.540029,-1.551424,0.1485758,155.1424
9.560029,-1.547832,0.1796043,154.7832
9.580029,-1.543621,0.2105609,154.3621
9.60003,-1.538792,0.2414333,153.8792
9.62003,-1.533348,0.2722092,153.3348
9.640031,-1.527291,0.3028762,152.7291
9.660031,-1.520622,0.333422,152.0622
9.680032,-1.513346,0.3638344,151.3346
9.700032,-1.505464,0.3941013,150.5464
9.720033,-1.496979,0.4242106,149.6979
9.740033,-1.487896,0.4541502,148.7896
9.760034,-1.478218,0.4839081,147.8218
9.780034,-1.467949,0.5134724,146.7949
9.800035,-1.457092,0.5428314,145.7092
9.820035,-1.445653,0.5719733,144.5653
9.840035,-1.433635,0.6008863,143.3635
9.860036,-1.421044,0.629559,142.1044
9.880036,-1.407884,0.6579799,140.7884
9.900037,-1.394161,0.6861376,139.4162
9.920037,-1.379881,0.7140208,137.9881
9.940038,-1.365049,0.7416185,136.5049
9.960038,-1.34967,0.7689194,134.967
9.980039,-1.333752,0.7959128,133.3752
10.00004,-1.3173,0.8225878,131.73
10.02004,-1.300322,0.8489339,130.0322
10.04004,-1.282823,0.8749403,128.2823
10.06004,-1.264811,0.9005967,126.4811
10.08004,-1.246293,0.9258929,124.6293
10.10004,-1.227277,0.9508188,122.7277
10.12004,-1.207769,0.9753643,120.7769
10.14004,-1.187779,0.9995197,118.7779
10.16004,-1.167313,1.023275,116.7313
10.18004,-1.146381,1.046622,114.6381
10.20004,-1.12499,1.069549,112.499
10.22004,-1.103149,1.092049,110.3149
10.24004,-1.080867,1.114112,108.0867
10.26005,-1.058152,1.135729,105.8152
10.28005,-1.035014,1.156892,103.5014
10.30005,-1.011463,1.177593,101.1463
10.32005,-0.9875062,1.197822,98.75062
10.34005,-0.9631547,1.217572,96.31548
10.36005,-0.938418,1.236835,93.8418
10.38005,-0.9133059,1.255603,91.3306
10.40005,-0.8878285,1.27387,88.78285
10.42005,-0.861996,1.291626,86.1996
10.44005,-0.8358186,1.308866,83.58186
10.46005,-0.809307,1.325582,80.93069
10.48005,-0.7824716,1.341769,78.24716
10.50005,-0.7553232,1.357418,75.53233
